Spectre Spot Positions

Context: Kenji needs to know the locations on the detector for each slice, wavelength, and field position

****************
*   36 Slices  *
****************
XY location (in mm) on the detector for Field 1 (middle of the slice) at 850 nm in the NIR channel

1-12:  top row, left to right
13-24: middle row, right to left
25-36: bottom row, left to right

#     x      y
1  -17.07  13.72
2  -14.10  13.63
3  -11.14  13.56
4   -8.17  13.50
5   -5.20  13.48
6   -2.23  13.46
7    0.74  13.45
8    3.71  13.45
9    6.68  13.47
10   9.65  13.51
11  12.61  13.56
12  15.58  13.62
13  17.07   4.66
14  14.10   4.60
15  11.13   4.54
16   8.16   4.50
17   5.19   4.46
18   2.22   4.45
19  -0.75   4.45
20  -3.72   4.45
21  -6.69   4.48
22  -9.65   4.50
23 -12.62   4.56
24 -15.59   4.62
25 -17.08  -4.54 
26 -14.11  -4.60
27 -11.14  -4.64
28  -8.17  -4.67
29  -5.20  -4.70
30  -2.23  -4.71
31   0.74  -4.71
32   3.71  -4.71
33   6.68  -4.69
34   9.65  -4.65
35  12.62  -4.61
36  15.59  -4.55

****************
*   Visible    *
****************

Field 1: middle of slice
Field 2: -0.0010 deg Y (right)
Field 3: +0.0010 deg Y (left)

>>> Slice 1  YFIE=1.0e-3 <<<
nm       Field 1         Field 2         Field 3
         x      y        x      y        x      y
400    12.97  11.97    13.49  11.96    12.45  11.97
500    12.98   8.65    13.50   8.65    12.46   8.65
850    13.00   4.57    13.52   4.58    12.48   4.56

>>> Slice 2  YFIE=7.14e-4 <<<
nm       Field 1         Field 2         Field 3
         x      y        x      y        x      y
400     0.65  11.82     1.17  11.82     0.12  11.82
500     0.65   8.51     1.17   8.51     0.12   8.51
850     0.65   4.42     1.17   4.42     0.13   4.42

>>> Slice 3  YFIE=3.714e-4 <<<
nm       Field 1         Field 2         Field 3
         x      y        x      y        x      y
400  -14.20  12.03    -13.68  12.03   -14.72  12.03
500  -14.21   8.72    -13.69   8.71   -14.73   8.72
850  -14.22   4.63    -13.70   4.63   -14.74   4.64

>>> Slice 4  YFIE=3.143e-4 <<<
nm       Field 1         Field 2         Field 3
         x      y        x      y        x      y
400   -12.99   4.56   -12.47   4.56   -13.52   4.56  
500   -13.00   1.24   -12.48   1.23   -13.53   1.24
850   -13.01  -2.86   -12.49  -2.87   -13.54  -2.85

>>> Slice 5  YFIE=2.857e-5 <<<
nm       Field 1         Field 2         Field 3
         x      y        x      y        x      y
400    -0.64   4.42   -0.12    4.42    -1.17   4.42  
500    -0.64   1.09   -0.12    1.09    -1.17   1.09 
850    -0.64  -3.00   -0.12   -3.00    -1.17  -3.00

>>> Slice 6  YFIE= <<<
nm       Field 1         Field 2         Field 3
         x      y        x      y        x      y
400    14.21   4.59    14.74   4.59    13.69   4.59
500    14.23   1.27    14.75   1.27    13.71   1.27
850    14.24  -2.82    14.77  -2.81    13.72  -2.83

>>> Slice 7  YFIE= <<<
nm       Field 1         Field 2         Field 3
         x      y        x      y        x      y
400    13.00  -2.94    13.53  -2.95    12.48  -2.95
500    13.01  -6.27    13.54  -6.27    12.49  -6.28
850    13.03 -10.37    13.55 -10.36    12.51 -10.38

>>> Slice 8  YFIE= <<<
nm       Field 1         Field 2         Field 3
         x      y        x      y        x      y
400     0.64  -3.08     1.16  -3.08     0.11  -3.08  
500     0.64  -6.41     1.16  -6.41     0.11  -6.41
850     0.64 -10.51     1.16 -10.51     0.12 -10.51

>>> Slice 9  YFIE= <<<
nm       Field 1         Field 2         Field 3
         x      y        x      y        x      y
400  -14.25   -2.94  -13.72  -2.94   -14.77   -2.94
500  -14.25   -6.27  -13.73  -6.27   -14.78   -6.25
850  -14.27  -10.36  -13.75 -10.37   -14.79  -10.35

****************
*     NIR      *
****************

Field 1: middle of slice
Field 2: -0.0010 deg Y (right)
Field 3: +0.0010 deg Y (left)

>>> Slice 1  YFIE=1.0e-3 <<<
um       Field 1         Field 2         Field 3
         x      y        x      y        x      y
0.85   15.60  13.62    16.23  13.62    14.97  13.61 
1.25   15.61  10.32    16.23  10.33    14.98  10.31
2.40   15.61   4.69    16.23   4.70    14.99   4.68


>>> Slice 2  YFIE=   <<<
um       Field 1         Field 2         Field 3
         x      y        x      y        x      y
0.85    0.77  13.42    1.40  13.43     0.14  13.43
1.25    0.78  10.13    1.41  10.13     0.15  10.13
2.40    0.80   4.50    1.42   4.50     0.18   4.50

>>> Slice 3  YFIE=   <<<
um       Field 1         Field 2         Field 3
         x      y        x      y        x      y
0.85  -17.08  13.70   -16.46  13.70   -17.71  13.71
1.25  -17.08  10.41   -16.45  10.40   -17.70  10.42
2.40  -17.04   4.78   -17.05   4.78   -17.66   4.79

>>> Slice 4  YFIE=   <<<
um       Field 1         Field 2         Field 3
         x      y        x      y        x      y
0.85  -15.60   4.43   -14.97   4.42   -16.22   4.43
1.25  -15.59   1.15   -14.96   1.14   -16.22   1.16
2.40  -15.56  -4.46   -14.94  -4.47   -16.18  -4.44

>>> Slice 5  YFIE=   <<<
um       Field 1         Field 2         Field 3
         x      y        x      y        x      y
0.85   -0.77   4.24    -0.15   4.25    -1.41   4.25
1.25   -0.77   0.97    -0.14   0.97    -1.40   0.97
2.40   -0.75  -4.64    -0.13  -4.64    -1.37  -4.64

>>> Slice 6  YFIE=   <<<
um       Field 1         Field 2         Field 3
         x      y        x      y        x      y
0.85   17.06   4.47    17.69   4.48    16.43   4.47
1.25   17.07   1.19    17.69   1.20    16.44   1.19
2.40   17.07  -4.41    17.69  -4.40    16.45  -4.42

>>> Slice 7  YFIE=   <<<
um       Field 1         Field 2         Field 3
         x      y        x      y        x      y
0.85   15.57  -4.82    16.20  -4.82    14.94  -4.83
1.25   15.58  -8.08    16.21  -8.08    14.95  -8.09
2.40   15.59 -13.66    16.21 -13.65    14.96 -13.67

>>> Slice 8  YFIE=   <<<
um       Field 1         Field 2         Field 3
         x      y        x      y        x      y
0.85    0.76  -4.99     1.39  -4.99    1.39   -4.99
1.25    0.77  -8.25     1.40  -8.25    0.13   -8.25
2.40    0.79 -13.83     1.41 -13.83    0.16  -13.83

>>> Slice 9  YFIE=   <<<
um         Field 1          Field 2          Field 3
          x       y        x      y         x       y
0.85   -17.06   -4.81   -16.44  -4.82    -17.69   -4.81
1.25   -17.06   -8.07   -16.43  -8.08    -17.69   -8.06
2.40   -17.03  -13.65   -16.41 -13.66    -17.65  -13.64


****************
*  Thermal IR  *      
****************

Field 1: middle of slice
Field 2: -0.0010 deg Y (right)
Field 3: +0.0010 deg Y (left)

>>> Slice 1  YFIE=1.0e-3 <<<
um      Field 1        Field 2        Field 3
       x      y       x      y       x      y
2.4  15.72  14.11   16.35  14.12   15.09  14.11
3.2  15.74  10.97   16.37  10.98   15.10  10.97  
4.2  15.76   5.55   16.39   5.56   15.13   5.55

>>> Slice 2  YFIE= <<<
um      Field 1        Field 2        Field 3
       x      y       x      y       x      y
2.4    0.77  13.98  1.40  13.98  0.13  13.98
3.2    0.79  10.83  1.42  10.83  0.15  10.84
4.2    0.83   5.41  1.45   5.42  0.20   5.42

>>> Slice 3  YFIE= <<<
um      Field 1        Field 2        Field 3
       x      y       x      y        x      y
2.4  -17.25  14.19  -16.61  14.19  -17.88  14.20
3.2  -17.22  11.05  -16.59  11.05  -17.86  11.06
4.2  -17.17   5.63  -16.54   5.62  -17.80   5.64

>>> Slice 4  YFIE= <<<
um      Field 1        Field 2        Field 3
       x      y       x      y       x      y
2.4   -15.74  4.97  -15.11  4.96  -16.39  4.97
3.2   -15.72  1.84  -15.08  1.83  -16.35  1.84
4.2   -15.67 -3.57  -15.04 -3.57  -16.30 -3.56

>>> Slice 5  YFIE= <<<
um      Field 1        Field 2        Field 3
       x      y       x      y       x      y
2.4    -0.80  4.83  -0.16  4.83  -1.44  4.83
3.2    -0.77  1.70  -0.14  1.70  -1.41  1.71
4.2    -0.74 -3.70  -0.11 -3.70  -1.36 -3.70

>>> Slice 6  YFIE= <<<
um      Field 1        Field 2        Field 3
       x      y       x      y       x      y
2.4   17.19  5.00  17.83  5.00  16.55  4.99
3.2   17.21  1.87  17.84  1.87  16.57  1.86
4.2   17.23 -3.54  17.86 -3.53  16.60 -3.54 

>>> Slice 7  YFIE= <<<
um      Field 1        Field 2        Field 3
       x      y        x      y        x      y
2.4   15.69  -4.28  16.33  -4.28  15.05  -4.28
3.2   15.71  -7.40  16.34  -7.40  15.07  -7.40
4.2   15.73 -12.78  16.35 -12.77  15.10 -12.78

>>> Slice 8  YFIE= <<<
um      Field 1        Field 2        Field 3
       x      y       x      y       x      y
2.4    0.75  -4.40   1.39  -4.40   0.11  -4.39
3.2    0.77  -7.51   1.41  -7.51   0.13  -7.51
4.2    0.81 -12.89   1.43 -12.89   0.18 -12.89

>>> Slice 9  YFIE= <<<
um      Field 1          Field 2          Field 3
       x      y         x       y        x       y
2.4  -17.23  -4.28   -16.59  -4.28   -17.87  -4.28
3.2  -17.20  -7.39   -16.56  -7.40   -17.83  -7.40
4.2  -17.15 -12.77   -16.52 -12.78   -17.78 -12.77
