Wavelength (nm),Intensity
196.2914015765968,61.166
196.75309374600835,93.9335
197.21473619557435,74.273
197.6763289233602,170.391
198.1378719274313,65.535
198.59936520585316,113.594
199.0608087566912,148.546
199.52220257801085,89.5645
199.98354666787762,211.8965
200.44484102435695,157.284
200.9060856455142,176.9445
201.36728052941493,176.9445
201.8284256741245,229.3725
202.2895210777084,200.974
202.7505667382321,192.236
203.21156265376098,205.343
203.67250882236056,242.47949999999997
204.13340524209622,211.8965
204.59425191103347,190.05149999999998
205.0550488272377,242.47949999999997
205.5157959887744,220.6345
205.976493393709,277.43149999999997
206.43714104010695,262.14
206.89773892603372,229.3725
207.35828704955475,220.6345
207.81878540873544,246.8485
208.27923400164127,283.985
208.7396328263377,244.664
209.19998188089016,200.974
209.66028116336415,249.033
210.12053067182498,297.092
210.58073040433825,209.712
211.04088035896936,187.867
211.50098053378375,240.295
211.9610309268468,166.022
212.4210315362241,190.05149999999998
212.88098235998095,183.498
213.3408833961829,176.9445
213.80073464289538,255.5865
214.2605360981838,262.14
214.72028776011362,240.295
215.17998962675028,163.83749999999998
215.6396416961593,211.8965
216.099243966406,218.45
216.55879643555596,229.3725
217.0182991016745,229.3725
217.47775196282723,227.188
217.93715501707942,270.878
218.3965082624966,249.033
218.85581169714425,205.343
219.3150653190878,131.07
219.77426912639268,244.664
220.23342311712432,181.31349999999998
220.6925272893482,168.2065
221.15158164112972,257.77099999999996
221.6105861705344,200.974
222.0695408756276,200.974
222.5284457544749,152.915
222.9873008051416,198.78949999999998
223.4461060256932,146.36149999999998
223.90486141419524,235.926
224.363566968713,144.177
224.82222268731203,124.5165
225.2808285680578,257.77099999999996
225.73938460901573,253.402
226.19789080825123,231.557
226.6563471638298,194.4205
227.1147536738168,216.26549999999997
227.5731103362778,174.76
228.03141714927818,176.9445
228.4896741108834,131.07
228.9478812191589,187.867
229.40603847217014,179.129
229.86414586798256,259.9555
230.32220340466156,163.83749999999998
230.78021108027266,203.1585
231.2381688928813,286.16949999999997
231.6960768405529,155.09949999999998
232.15393492135294,216.26549999999997
232.61174313334683,249.033
233.0695014746,172.57549999999998
233.52720994317795,281.8005
233.98486853714616,181.31349999999998
234.44247725456992,172.57549999999998
234.90003609351487,190.05149999999998
235.35754505204633,222.819
235.8150041282298,207.52749999999997
236.2724133201307,229.3725
236.72977262581452,179.129
237.18708204334666,216.26549999999997
237.64434157079262,211.8965
238.10155120621775,227.188
238.55871094768764,227.188
239.0158207932676,238.1105
239.4728807410232,268.6935
239.9298907890198,255.5865
240.38685093532285,225.00349999999997
240.8437611779978,235.926
241.3006215151102,257.77099999999996
241.7574319447254,249.033
242.21419246490882,161.653
242.67090307372595,159.4685
243.12756376924227,238.1105
243.5841745495232,325.4905
244.04073541263415,176.9445
244.49724635664063,242.47949999999997
244.95370737960803,196.605
245.4101184796019,246.8485
245.86647965468754,235.926
246.3227909029305,179.129
246.7790522223962,203.1585
247.2352636111501,246.8485
247.69142506725763,187.867
248.14753658878422,216.26549999999997
248.60359817379538,211.8965
249.05960982035648,161.653
249.51557152653302,216.26549999999997
249.97148329039047,257.77099999999996
250.42734510999418,139.808
250.88315698340966,192.236
251.3389189087024,225.00349999999997
251.79463088393783,242.47949999999997
252.25029290718126,187.867
252.70590497649835,231.557
253.16146708995439,200.974
253.61697924561494,290.5385
254.07244144154538,168.2065
254.52785367581112,192.236
254.98321594647769,211.8965
255.4385282516105,220.6345
255.89379058927503,286.16949999999997
256.34900295753664,238.1105
256.80416535446085,259.9555
257.25927777811313,196.605
257.7143402265589,214.081
258.16935269786364,190.05149999999998
258.6243151900926,229.3725
259.07922770131154,187.867
259.53409022958573,174.76
259.98890277298057,176.9445
260.44366532956155,214.081
260.89837789739425,194.4205
261.353040474544,218.45
261.80765305907624,266.509
262.2622156490565,198.78949999999998
262.71672824255,183.498
263.1711908376225,172.57549999999998
263.6256034323393,174.76
264.0799660247657,170.391
264.5342786129674,179.129
264.9885411950098,251.21749999999997
265.4427537689582,198.78949999999998
265.8969163328782,255.5865
266.3510288848352,240.295
266.8050914228946,251.21749999999997
267.2591039451219,249.033
267.7130664495825,264.3245
268.1669789343419,242.47949999999997
268.6208413974655,238.1105
269.0746538370188,159.4685
269.5284162510672,235.926
269.98212863767617,255.5865
270.4357909949112,220.6345
270.88940332083763,227.188
271.342965613521,251.21749999999997
271.79647787102675,168.2065
272.2499400914202,235.926
272.703352272767,259.9555
273.15671441313253,207.52749999999997
273.6100265105822,259.9555
274.0632885631814,205.343
274.5165005689957,266.509
274.9696625260905,218.45
275.4227744325311,270.878
275.8758362863833,220.6345
276.32884808571214,225.00349999999997
276.78180982858333,216.26549999999997
277.2347215130623,200.974
277.68758313721446,227.188
278.1403946991052,242.47949999999997
278.5931561968,211.8965
279.04586762836436,209.712
279.4985289918636,253.402
279.9511402853633,172.57549999999998
280.4037015069289,168.2065
280.8562126546258,209.712
281.3086737265195,244.664
281.76108472067534,157.284
282.21344563515885,240.295
282.6657564680354,257.77099999999996
283.1180172173706,308.0145
283.57022788122975,205.343
284.02238845767835,244.664
284.4744989447818,227.188
284.92655934060565,229.3725
285.37856964321526,233.74149999999997
285.83052985067616,196.605
286.2824399610537,222.819
286.73429997241334,270.878
287.1861098828206,209.712
287.6378696903408,211.8965
288.0895793930395,166.022
288.5412389889822,262.14
288.9928484762342,310.19899999999996
289.44440785286105,229.3725
289.89591711692816,203.1585
290.34737626650093,174.76
290.7987852996449,242.47949999999997
291.25014421442546,246.8485
291.70145300890806,183.498
292.15271168115817,174.76
292.6039202292413,205.343
293.05507865122274,192.236
293.50618694516805,222.819
293.95724510914266,207.52749999999997
294.40825314121196,246.8485
294.8592110394415,214.081
295.3101188018967,176.9445
295.76097642664286,211.8965
296.21178391174567,157.284
296.6625412552704,262.14
297.1132484552826,231.557
297.56390550984764,159.4685
298.01451241703097,200.974
298.4650691748981,209.712
298.9155757815144,249.033
299.3660322349454,192.236
299.81643853325653,266.509
300.26679467451316,207.52749999999997
300.7171006567809,229.3725
301.167356478125,220.6345
301.617562136611,233.74149999999997
302.06771763030446,262.14
302.51782295727054,176.9445
302.967878115575,244.664
303.4178831032831,218.45
303.8678379184603,238.1105
304.31774255917213,231.557
304.767597023484,187.867
305.21740130946137,233.74149999999997
305.6671554151696,190.05149999999998
306.11685933867426,229.3725
306.5665130780407,194.4205
307.01611663133446,235.926
307.46566999662093,161.653
307.91517317196553,211.8965
308.36462615543377,262.14
308.8140289450911,222.819
309.2633815390029,229.3725
309.7126839352347,275.24699999999996
310.16193613185175,238.1105
310.6111381269198,227.188
311.06028991850417,205.343
311.5093915046702,187.867
311.95844288348343,253.402
312.4074440530094,192.236
312.85639501131334,246.8485
313.3052957564609,242.47949999999997
313.7541462865174,207.52749999999997
314.2029465995484,205.343
314.65169669361916,207.52749999999997
315.1003965667954,181.31349999999998
315.54904621714223,216.26549999999997
315.9976456427254,233.74149999999997
316.4461948416103,214.081
316.8946938118622,281.8005
317.34314255154675,233.74149999999997
317.79154105872925,205.343
318.23988933147524,179.129
318.6881873678501,231.557
319.13643516591935,216.26549999999997
319.5846327237484,286.16949999999997
320.0327800394027,262.14
320.4808771109478,209.712
320.92892393644894,253.402
321.3769205139717,220.6345
321.82486684158147,181.31349999999998
322.27276291734375,259.9555
322.72060873932395,275.24699999999996
323.16840430558756,253.402
323.61614961419997,190.05149999999998
324.0638446632267,172.57549999999998
324.51148945073317,198.78949999999998
324.9590839747848,192.236
325.40662823344707,211.8965
325.8541222247854,297.092
326.30156594686514,192.236
326.748959397752,181.31349999999998
327.1963025755111,198.78949999999998
327.64359547820817,257.77099999999996
328.0908381039086,190.05149999999998
328.53803045067775,211.8965
328.9851725165811,227.188
329.4322642996841,257.77099999999996
329.87930579805214,233.74149999999997
330.32629700975076,225.00349999999997
330.77323793284546,218.45
331.2201285654014,238.1105
331.6669689054844,187.867
332.1137589511597,176.9445
332.5604987004928,211.8965
333.00718815154914,264.3245
333.45382730239413,242.47949999999997
333.9004161510932,218.45
334.34695469571193,229.3725
334.7934429343156,174.76
335.2398808649698,264.3245
335.6862684857399,200.974
336.13260579469136,209.712
336.57889278988966,297.092
337.0251294694002,222.819
337.4713158312885,198.78949999999998
337.9174518736198,257.77099999999996
338.3635375944599,244.664
338.8095729918739,209.712
339.2555580639275,225.00349999999997
339.70149280868594,238.1105
340.14737722421484,231.557
340.59321130857967,235.926
341.03899505984566,273.0625
341.48472847607843,268.6935
341.93041155534337,235.926
342.3760442957059,275.24699999999996
342.82162669523154,323.306
343.26715875198573,209.712
343.71264046403394,277.43149999999997
344.15807182944155,277.43149999999997
344.60345284627397,246.8485
345.04878351259674,288.354
345.49406382647527,266.509
345.939293785975,253.402
346.3844733891614,281.8005
346.8296026340999,229.3725
347.27468151885597,216.26549999999997
347.7197100414951,323.306
348.16468820008254,283.985
348.60961599268404,312.38349999999997
349.05449341736477,218.45
349.49932047219033,229.3725
349.94409715522613,353.889
350.3888234645376,266.509
350.8334993981902,242.47949999999997
351.2781249542494,303.64549999999997
351.72270013078065,351.7045
352.1672249258494,301.461
352.61169933752103,318.937
353.0561233638611,325.4905
353.5004970029349,275.24699999999996
353.944820252808,334.2285
354.3890931115458,395.3945
354.83331557721374,338.59749999999997
355.2774876478774,366.996
355.72160932160205,349.52
356.1656805964532,353.889
356.60970147049636,375.734
357.05367194179695,308.0145
357.4975920084202,332.044
357.94146166843194,318.937
358.3852809198973,316.7525
358.8290497608819,332.044
359.2727681894512,349.52
359.7164362036705,366.996
360.16005380160544,439.0845
360.6036209813213,395.3945
361.04713774088356,366.996
361.4906040783577,329.85949999999997
361.93401999180924,386.6565
362.3773854793035,397.57899999999995
362.82070053890595,404.1325
363.2639651686821,417.23949999999996
363.7071793666974,397.57899999999995
364.1503431310173,428.162
364.5934564597071,432.53099999999995
365.03651935083235,456.5605
365.4795318024586,493.697
365.9224938126511,465.2985
366.3654053794755,526.4644999999999
366.80826650099715,576.708
367.25107717528147,535.2025
367.69383740039393,484.95899999999995
368.1365471744,502.43499999999995
368.5792064953651,415.05499999999995
369.02181536135464,570.1545
369.4643737704342,605.1065
369.9068817206691,526.4644999999999
370.3493392101248,524.28
370.79174623686686,561.4164999999999
371.2341027989606,552.6785
371.6764088944715,565.7855
372.118664521465,530.8335
372.5608696780066,607.2909999999999
373.0030243621617,635.6895
373.4451285719958,565.7855
373.88718230557424,522.0955
374.32918556096257,572.3389999999999
374.7711383362262,559.232
375.2130406294307,559.232
375.6548924386413,609.4755
376.0966937619236,513.3575
376.53844459734296,688.1175
376.9801449429648,644.4275
377.4217947968547,694.6709999999999
377.863394157078,618.2135
378.30494302170024,696.8555
378.74644138878676,723.0695
379.18788925640314,609.4755
379.6292866226147,633.505
380.07063348548695,602.922
380.5119298430853,624.7669999999999
380.95317569347526,640.0585
381.39437103472216,648.7964999999999
381.8355158648916,646.612
382.27661018204896,626.9515
382.71765398425964,581.077
383.1586472695892,611.66
383.599590036103,522.0955
384.0404822818665,539.5715
384.4813240049451,589.8149999999999
384.92211520340436,683.7484999999999
385.3628558753096,668.457
385.80354601872637,677.1949999999999
386.2441856317201,685.933
386.6847747123562,716.516
387.1253132587002,753.6524999999999
387.5658012688175,740.5455
388.0062387407734,790.789
388.44662567263356,699.04
388.88696206246334,760.2059999999999
389.3272479083282,731.8075
389.7674832082936,830.1099999999999
390.207667960425,893.4604999999999
390.6478021627878,906.5675
391.08788581344743,921.8589999999999
391.5279189104694,941.5195
391.96790145191915,974.2869999999999
392.4078334358621,865.0619999999999
392.8477148603637,889.0915
393.28754572348936,847.586
393.7273260233046,882.538
394.1670557578749,729.6229999999999
394.6067349252656,841.0324999999999
395.0463635235422,978.656
395.4859415507702,1017.977
395.92546900501486,969.9179999999999
396.36494588434186,865.0619999999999
396.80437218681647,956.8109999999999
397.2437479105043,991.7629999999999
397.6830730534707,1074.774
398.1223476137811,1063.8515
398.561571589501,1155.6005
399.0007449786958,1317.2535
399.43986777943104,1404.6335
399.87893998977194,1478.9064999999998
400.31796160778424,1509.4895
400.7569326315332,1575.0245
401.19585305908436,1566.2865
401.6347228885031,1658.0355
402.0735421178549,1719.2015
402.51231074520524,1697.3564999999999
402.95102876861955,1682.0649999999998
403.38969618616323,1664.589
403.82831299590174,1649.2975
404.2668791959006,1638.375
404.70539478422506,1865.5629999999999
405.14385975894083,1817.504
405.5822741181132,1747.6
406.0206378598077,1834.98
406.45895098208973,1867.7475
406.89721348302476,1832.7955
407.3354253606782,1920.1754999999998
407.77358661311536,1911.4375
408.21169723840205,1976.9724999999999
408.6497572346034,2014.109
409.08776659978497,1987.895
409.52572533201226,2079.644
409.9636334293507,2103.6735
410.40149088986567,2177.9465
410.83929771162263,2197.607
411.277053892687,2145.179
411.7147594311243,2252.2194999999997
412.15241432499994,2335.2304999999997
412.59001857237945,2374.5515
413.0275721713282,2302.4629999999997
413.4650751199116,2361.4445
413.9025274161952,2416.057
414.33992905824437,2485.961
414.7772800441245,2490.33
415.2145803719012,2457.5625
415.6518300396398,2564.603
416.08902904540577,2562.4184999999998
416.5261773872646,2612.662
416.9632750632817,2654.1675
417.4003220715225,2551.496
417.8373184100525,2728.4404999999997
418.27426407693713,2778.6839999999997
418.7111590702418,2706.5955
419.14800338803195,2852.957
419.58479702837315,2804.8979999999997
420.0215399893306,2763.3925
420.45823226897005,2780.8685
420.8948738653568,2809.267
421.3314647765563,2955.6285
421.768005000634,3001.5029999999997
422.2044945356553,3104.1744999999996
422.6409333796857,2999.3185
423.0773215307906,3141.3109999999997
423.51365898703557,3099.8055
423.9499457464859,3115.0969999999998
424.3861818072072,3204.6614999999997
424.8223671672648,3246.167
425.2585018247242,3198.1079999999997
425.69458577765084,3145.68
426.1306190241101,3252.7205
426.5666015621675,3265.8275
427.00253338988847,3261.4584999999997
427.43841450533847,3309.5175
427.8742449065829,3243.9824999999996
428.3100245916873,3143.4955
428.74575355871707,3154.4179999999997
429.1814318057376,3195.9235
429.6170593308144,3178.4474999999998
430.05263613201294,3032.086
430.48816220739855,2892.278
430.9236375550368,3043.0085
431.3590621729931,3189.37
431.7944360593329,3182.8165
432.2297592121216,3281.1189999999997
432.6650316294248,3462.4325
433.10025330930773,3512.676
433.53542424983607,3497.3844999999997
433.970544449075,3431.8495
434.40561390509015,3440.5874999999996
434.84063261594696,3610.9784999999997
435.2756005797108,3488.6465
435.7105177944472,3639.377
436.1453842582216,3796.6609999999996
436.58019996909934,3591.3179999999998
437.01496492514605,3713.6499999999996
437.44967912442695,3654.6684999999998
437.8843425650076,3746.4175
438.3189552449536,3680.8824999999997
438.7535171623302,3763.8934999999997
439.18802831520287,3698.3585
439.6224887016371,3667.7754999999997
440.0568983196983,3676.5135
440.49125716745203,3698.3585
440.9255652429636,3835.982
441.35982254429854,4034.7715
441.7940290695222,3901.517
442.22818481670015,4082.8304999999996
442.66228978389785,4006.3729999999996
443.09634396918057,3991.0815
443.53034737061387,3999.8194999999996
443.96429998626326,4093.7529999999997
444.3982018141941,4089.384
444.8320528524719,4109.0445
445.265853099162,4109.0445
445.69960255232996,4019.4799999999996
446.13330121004117,3969.2365
446.5669490703611,4176.764
447.0005461313551,4141.812
447.4340923910889,4272.882
447.86758784762765,4202.978
448.3010324990369,4253.2215
448.73442634338215,4432.3505
449.1677693787287,4406.1365
449.60106160314217,4476.0405
450.0343030146879,4465.1179999999995
450.4674936114314,4626.771
450.900633391438,4441.0885
451.3337223527734,4500.07
451.7667604935028,4644.246999999999
452.19974781169174,4663.907499999999
452.6326843054056,4576.5275
453.0655699727099,4491.331999999999
453.4984048116702,4681.3835
453.9311888203517,4613.664
454.36392199682,4438.9039999999995
454.7966043391405,4670.460999999999
455.2292358453787,4578.7119999999995
455.6618165136,4777.501499999999
456.0943463418699,4749.103
456.5268253282537,4812.4535
456.95925347081703,4987.2135
457.39163076762526,4930.416499999999
457.82395721674385,5157.6044999999995
458.25623281623825,4884.5419999999995
458.6884575641738,5002.505
459.1206314586161,4906.387
459.55275449763053,5179.4495
459.9848266792826,4801.531
460.4168480016377,4871.4349999999995
460.8488184627612,4947.8925
461.2807380607187,4982.8445
461.7126067935756,5192.5565
462.14442465939726,5201.2945
462.57619165624925,5089.884999999999
463.0079077821969,5308.335
463.4395730353058,5151.0509999999995
463.8711874136413,5102.992
464.3027509152688,5127.0215
464.73426353825386,5135.7595
465.16572528066183,5063.670999999999
465.5971361405583,5096.438499999999
466.0284961160085,5006.874
466.4598052050781,4921.6785
466.8910634058325,4912.9405
467.32227071633696,4893.28
467.7534271346571,5024.349999999999
468.1845326588584,4982.8445
468.6155872870062,5192.5565
469.046591017166,5120.468
469.47754384740324,5068.04
469.90844577578326,4862.697
470.33929680037176,5201.2945
470.77009691923394,5168.527
471.2008461304354,5236.246499999999
471.6315444320415,5153.2355
472.06219182211777,5435.036
472.4927882987296,5244.9845
472.92333385994243,5424.1134999999995
473.3538285038217,5721.2055
473.7842722284329,5568.2905
474.21466503184143,5570.474999999999
474.6450069121128,5721.2055
475.07529786731243,5660.0395
475.50553789550577,5834.7995
475.93572699475817,5710.282999999999
476.36586516313525,5930.9175
476.7959523987024,6007.375
477.225988699525,6206.1645
477.65597406366857,6042.326999999999
478.0859084891985,6138.445
478.5157919741803,6553.5
478.94562451667935,6573.1605
479.375406114761,6693.308
479.805136766491,6667.094
480.23481646993463,6852.7765
480.66444522315726,7138.946
481.09402302422444,7012.245
481.52354987120157,7058.1195
481.95302576215414,7103.994
482.3824506951476,7106.1785
482.8118246682473,7396.717
483.2411476795188,7460.067499999999
483.67041972702754,7178.267
484.0996408088389,7505.942
484.5288109230184,7200.111999999999
484.9579300676313,7298.4145
485.38699824074337,7071.2265
485.81601544041985,7152.053
486.2449816647262,6892.0975
486.6738969117278,7018.7985
487.10276117949024,7003.507
487.531574466079,7114.916499999999
487.9603367695594,7396.717
488.3890480879969,7503.7575
488.81770841945695,7501.572999999999
489.2463177620051,7829.248
489.6748761137067,7881.6759999999995
490.10338347262723,8001.8234999999995
490.53183983683203,7984.3475
490.96024520438675,7938.473
491.3885995733567,8021.4839999999995
491.8169029418074,8056.436
492.2451553078042,7964.687
492.6733566694126,7969.056
493.10150702469815,7993.085499999999
493.5296063717261,7984.3475
493.9576547085621,8038.959999999999
494.3856520332714,8093.572499999999
494.8135983439196,8244.303
495.2414936385721,8093.572499999999
495.66933791529425,8119.786499999999
496.0971311721516,8176.5835
496.52487340720967,8036.7755
496.95256461853376,8224.6425
497.3802048041894,8115.4175
497.80779396224204,8218.089
498.2353320907571,8054.251499999999
498.6628191878,8126.339999999999
499.09025525143625,7973.424999999999
499.51764027973127,7997.4545
499.94497427075044,7896.9675
500.3722572225593,7949.3955
500.7994891332233,7923.1815
501.22667000080787,7829.248
501.65379982337834,7779.0045
502.08087859900047,7730.9455
502.50790632573927,7840.170499999999
502.9348830016607,7754.974999999999
503.3618086248296,7787.742499999999
503.78868319331195,7833.616999999999
504.2155067051729,8006.192499999999
504.64227915847806,7960.317999999999
505.0690005512928,8056.436
505.49567088168243,7997.4545
505.92229014771283,8082.65
506.34885834744887,8091.388
506.7753754789565,8108.864
507.20184154030073,8076.0965
507.6282565295474,8012.745999999999
508.0546204447618,8170.03
508.4809332840093,7903.521
508.9071950453555,8052.067
509.3334057268655,8191.875
509.75956532660535,8073.911999999999
510.18567384263997,8095.757
510.6117312730351,8305.469
511.037737615856,8261.779
511.4636928691682,8432.17
511.88959703103717,8316.3915
512.3154500995283,8475.859999999999
512.7412520727072,8351.343499999999
513.1670029486389,8392.849
513.5927027253895,8148.1849999999995
514.0183514010239,8233.3805
514.4439489736078,8353.528
514.8694954412065,8130.709
515.2949908018855,8154.7384999999995
515.7204350537104,8095.757
516.1458281947465,7929.735
516.5711702230592,7925.366
516.996461136714,7813.956499999999
517.4217009337766,7789.927
517.8468896123119,7615.1669999999995
518.272027170386,7737.499
518.6971136060637,7962.5025
519.1221489174109,7912.259
519.5471331024927,8261.779
519.972066159375,8126.339999999999
520.396948086123,8342.6055
520.821778880802,8576.347
521.2465585414777,8521.734499999999
521.6712870662153,8488.966999999999
522.0959644530805,8624.405999999999
522.5205907001387,8488.966999999999
522.9451658054553,8532.657
523.3696897670957,8545.764
523.7941625831253,8722.708499999999
524.2185842516096,8818.8265
524.6429547706141,8866.8855
525.0672741382044,8919.3135
525.4915423524455,8679.0185
525.9157594114032,8460.5685
526.339925313143,8353.528
526.7640400557302,8213.72
527.1881036372301,8290.1775
527.6121160557084,8231.196
528.0360773092306,8537.026
528.4599873958617,8528.288
528.8838463136677,8713.9705
529.3076540607137,8687.7565
529.7314106350653,8722.708499999999
530.1551160347879,8829.749
530.5787702579469,8949.896499999999
531.0023733026078,9000.14
531.425925166836,8777.321
531.849425848697,8637.512999999999
532.2728753462562,8648.4355
532.6962736575792,8371.003999999999
533.1196207807312,8329.4985
533.5429167137779,8432.17
533.9661614547846,8543.5795
534.3893550018167,8689.940999999999
534.8124973529397,8462.752999999999
535.235588506219,8646.251
535.6586284597204,8565.4245
536.0816172115087,8491.1515
536.5045547596501,8458.384
536.9274411022094,8493.336
537.3502762372524,8301.1
537.7730601628444,8395.0335
538.1957928770508,8309.838
538.6184743779373,8373.1885
539.0411046635691,8495.520499999999
539.463683732012,8200.613
539.8862115813307,8062.9895
540.3086882095917,8023.6685
540.7311136148595,8060.804999999999
541.1534877951999,8117.602
541.5758107486787,8049.8825
541.9980824733607,8124.1555
542.420302967312,8034.590999999999
542.8424722285973,8014.9304999999995
543.2645902552829,7986.531999999999
543.6866570454335,8132.893499999999
544.1086725971152,8025.852999999999
544.5306369083927,7949.3955
544.9525499773321,7940.657499999999
545.3744118019986,8017.115
545.7962223804576,8006.192499999999
546.2179817107747,8062.9895
546.6396897910151,8010.5615
547.0613466192447,7875.1224999999995
547.4829521935283,7768.081999999999
547.9045065119319,7881.6759999999995
548.3260095725205,7846.723999999999
548.7474613733601,8062.9895
549.1688619125157,8023.6685
549.5902111880529,7966.871499999999
550.0115091980371,8049.8825
550.4327559405336,8028.037499999999
550.8539514136085,8036.7755
551.2750956153263,7831.4325
551.6961885437531,7809.5875
552.1172301969542,8062.9895
552.538220572995,7993.085499999999
552.959159669941,7951.58
553.3800474858575,7881.6759999999995
553.8008840188103,8019.299499999999
554.2216692668642,8091.388
554.6424032280855,7918.8125
555.0630859005389,7872.937999999999
555.4837172822903,7910.0745
555.9042973714049,7816.141
556.3248261659484,7720.022999999999
556.745303663986,7912.259
557.1657298635832,7807.402999999999
557.5861047628056,7792.1115
558.0064283597183,7593.321999999999
558.4267006523874,7591.1375
558.8469216388775,7420.746499999999
559.2670913172547,7538.7095
559.6872096855841,7612.982499999999
560.1072767419314,7510.311
560.527292484362,7516.8645
560.947256910941,7403.2705
561.3671700197343,7436.038
561.787031808807,7647.934499999999
562.2068422762251,7527.786999999999
562.6266014200532,7623.905
563.0463092383576,7578.0305
563.465965729203,7405.455
563.8855708906555,7429.4845
564.3051247207801,7536.525
564.7246272176424,7473.174499999999
565.1440783793079,7298.4145
565.5634782038419,7433.853499999999
565.9828266893102,7261.277999999999
566.4021238337776,7425.1155
566.8213696353101,7353.027
567.240564091973,7390.1635
567.6597072018318,7427.299999999999
568.0787989629519,7280.938499999999
568.4978393733985,7342.1044999999995
568.9168284312375,7379.241
569.335766134534,7383.61
569.7546524813537,7141.130499999999
570.1734874697618,7211.0345
570.5922710978238,7136.7615
571.0110033636054,7051.566
571.4296842651717,7123.6545
571.8483138005884,7114.916499999999
572.2668919679206,7001.322499999999
572.6854187652344,7239.433
573.1038941905946,7215.403499999999
573.5223182420672,7066.8575
573.9406909177169,6942.340999999999
574.3590122156098,7069.0419999999995
574.7772821338112,6820.009
575.1955006703864,6586.2675
575.613667823401,6948.894499999999
576.0317835909203,6669.278499999999
576.44984797101,6597.19
576.8678609617352,6601.558999999999
577.2858225611617,6439.906
577.7037327673545,6490.1494999999995
578.1215915783796,6520.7325
578.539398992302,6474.857999999999
578.9571550071875,6365.633
579.3748596211011,6551.3155
579.7925128321086,6339.419
580.2101146382755,6573.1605
580.6276650376669,6422.429999999999
581.0451640283486,6356.8949999999995
581.4626116083858,6380.9245
581.8800077758442,6308.835999999999
582.297352528789,6306.6515
582.7146458652858,6398.4005
583.1318877834001,6466.12
583.5490782811969,6339.419
583.9662173567424,6313.205
584.3833050081013,6514.179
584.8003412333394,6208.348999999999
585.2173260305224,6151.552
585.6342593977153,6147.183
586.0511413329837,5874.1205
586.4679718343931,6160.29
586.884750900009,6134.076
587.3014785278966,6027.0355
587.7181547161217,5865.3825
588.1347794627494,5662.224
588.5513527658453,5572.6595
588.9678746234749,5579.213
589.3843450337038,5240.6155
589.8007639945971,5308.335
590.2171315042203,5465.619
590.6334475606392,5609.795999999999
591.0497121619188,5627.272
591.4659253061249,5511.4935
591.8820869913226,5577.028499999999
592.2981972155776,5533.3385
592.7142559769553,5542.0765
593.1302632735211,5563.9214999999995
593.5462191033406,5559.5525
593.9621234644791,5555.1835
594.3779763550021,5522.415999999999
594.7937777729749,5511.4935
595.2095277164632,5550.8144999999995
595.6252261835322,5653.486
596.0408731722475,5592.32
596.4564686806746,5535.523
596.8720127068788,5714.652
597.2875052489256,5649.116999999999
597.7029463048804,5710.282999999999
598.1183358728089,5721.2055
598.5336739507761,5701.545
598.9489605368481,5839.1685
599.3641956290895,5769.264499999999
599.7793792255665,5852.2755
600.194511324344,5788.924999999999
600.6095919234878,5791.1095
601.0246210210634,5987.7145
601.4395986151358,5981.161
601.854524703771,6031.4045
602.269399285034,5935.286499999999
602.6842223569905,6024.851
603.0989939177058,6064.172
603.5137139652455,5885.043
603.928382497675,6118.7845
604.3429995130597,6120.969
604.757565009465,5930.9175
605.1720789849564,6024.851
605.5865414375995,5944.0244999999995
606.0009523654595,5880.674
606.4153117666021,5915.625999999999
606.8296196390924,5974.6075
607.2438759809962,5926.5485
607.6580807903788,5889.411999999999
608.0722340653057,5972.423
608.4863358038422,5817.3234999999995
608.9003860040536,5714.652
609.3143846640061,5535.523
609.7283317817642,5611.9805
610.142227355394,5507.1245
610.5560713829607,5566.106
610.9698638625297,5402.2685
611.3836047921667,5382.608
611.7972941699369,5389.1615
612.2109319939058,5362.947499999999
612.6245182621388,5295.228
613.0380529727016,5321.442
613.4515361236593,5236.246499999999
613.8649677130776,5247.169
614.2783477390218,5172.896
614.6916761995575,5124.8369999999995
615.1049530927501,5153.2355
615.5181784166649,5072.409
615.9313521693674,4980.66
616.3444743489232,4995.9515
616.7575449533977,4805.9
617.1705639808561,4987.2135
617.5835314293641,4960.9995
617.9964472969873,4912.9405
618.4093115817907,4827.745
618.8221242818402,4834.2985
619.2348853952006,4781.8705
619.6475949199383,4779.686
620.060252854118,4847.4055
620.4728591958055,4709.782
620.8854139430659,4794.9775
621.2979170939649,4727.258
621.7103686465681,4639.878
622.1227685989406,4620.2175
622.5351169491482,4620.2175
622.9474136952559,4626.771
623.3596588353297,4445.4574999999995
623.7718523674346,4414.8745
624.1839942896362,4458.5644999999995
624.5960845999999,4373.369
625.0081232965913,4279.4355
625.4201103774758,4288.1735
625.8320458407187,4189.871
626.2439296843856,4211.715999999999
626.6557619065417,4157.1035
627.0675425052528,4135.2585
627.4792714785842,4128.705
627.8909488246015,4015.111
628.3025745413697,3936.4689999999996
628.7141486269546,3951.7605
629.1256710794215,3916.8084999999996
629.5371418968361,3929.9154999999996
629.9485610772635,3962.683
630.3599286187693,4019.4799999999996
630.7712445194193,3956.1295
631.1825087772783,3958.314
631.5937213904123,3984.528
632.0048823568862,3768.2625
632.4159916747659,3953.9449999999997
632.8270493421168,3820.6904999999997
633.2380553570041,3801.0299999999997
633.6490097174935,3988.897
634.0599124216503,3818.506
634.4707634675401,3960.4984999999997
634.881562853228,3888.41
635.2923105767801,3964.8675
635.7030066362611,3750.7864999999997
636.1136510297367,3811.9525
636.5242437552727,3796.6609999999996
636.9347848109342,3956.1295
637.3452741947867,3842.5355
637.7557119048956,3868.7495
638.1660979393266,3792.292
638.5764322961448,3750.7864999999997
638.9867149734159,3763.8934999999997
639.3969459692053,3805.399
639.8071252815784,3667.7754999999997
640.2172529086007,3737.6794999999997
640.6273288483375,3742.0485
641.0373530988544,3691.805
641.4473256582166,3742.0485
641.8572465244902,3624.0854999999997
642.2671156957399,3565.104
642.6769331700315,3610.9784999999997
643.0866989454304,3512.676
643.4964130200021,3506.1225
643.9060753918119,3488.6465
644.3156860589254,3497.3844999999997
644.725245019408,3499.569
645.1347522713249,3545.4435
645.5442078127421,3584.7644999999998
645.9536116417245,3412.189
646.3629637563379,3405.6355
646.7722641546476,3377.2369999999996
647.181512834719,3307.3329999999996
647.5907097946177,3333.547
647.999855032409,3394.7129999999997
648.4089485461586,3270.1965
648.8179903339314,3364.1299999999997
649.2269803937936,3318.2554999999998
649.63591872381,3298.595
650.0448053220464,3158.787
650.4536401865681,3189.37
650.8624233154408,3193.739
651.2711547067296,3307.3329999999996
651.6798343584999,3139.1265
652.0884622688177,3268.0119999999997
652.4970384357478,3265.8275
652.9055628573561,3377.2369999999996
653.3140355317078,3263.643
653.7224564568685,3219.953
654.1308256309035,3128.2039999999997
654.5391430518783,3123.835
654.9474087178586,3016.7945
655.3556226269093,2957.8129999999996
655.7637847770965,3062.669
656.171895166485,2861.6949999999997
656.5799537931408,2852.957
656.987960655129,2949.075
657.3959157505152,2907.5695
657.8038190773648,2949.075
658.2116706337432,3036.455
658.619470417716,3082.3295
659.0272184273484,3143.4955
659.4349146607063,3075.776
659.8425591158546,3112.9125
660.250151790859,3152.2335
660.657692683785,3112.9125
661.065181792698,3086.6985
661.4726191156634,3160.9714999999997
661.8800046507467,3093.252
662.2873383960134,3158.787
662.6946203495287,3053.931
663.1018505093583,3097.6209999999996
663.5090288735677,3086.6985
663.9161554402222,2977.4735
664.323230207387,3023.348
664.7302531731281,2935.968
665.1372243355106,2959.9975
665.5441436926001,3008.0564999999997
665.9510112424618,3040.8239999999996
666.3578269831612,2959.9975
666.7645909127641,2970.92
667.1713030293356,2962.182
667.5779633309413,2968.7355
667.9845718156466,2870.433
668.391128481517,2839.85
668.7976333266178,3018.979
669.2040863490145,2938.1524999999997
669.6104875467727,2815.8205
670.0168369179574,2800.529
670.4231344606349,2783.053
670.8293801728697,2866.064
671.2355740527281,2769.946
671.6417160982749,2872.6175
672.0478063075756,2824.5584999999996
672.453844678696,2708.7799999999997
672.8598312097013,2780.8685
673.2657658986573,2798.3444999999997
673.6716487436287,2807.0825
674.0774797426817,2693.4885
674.4832588938814,2732.8095
674.8889861952935,2697.8575
675.294661644983,2756.839
675.7002852410154,2741.5474999999997
676.1058569814569,2645.4294999999997
676.511376864372,2730.625
676.9168448878268,2636.6915
677.3222610498863,2630.138
677.7276253486164,2601.7394999999997
678.1329377820819,2551.496
678.5381983483489,2527.4665
678.9434070454823,2490.33
679.348563871548,2564.603
679.7536688246115,2536.2045
680.1587219027377,2547.127
680.5637231039926,2536.2045
680.9686724264413,2457.5625
681.3735698681495,2518.7284999999997
681.7784154271824,2547.127
682.1832091016057,2488.1455
682.5879508894844,2378.9204999999997
682.9926407888845,2383.2895
683.3972787978712,2402.95
683.8018649145099,2309.0164999999997
684.2063991368661,2350.522
684.6108814630053,2348.3375
685.015311890993,2319.939
685.4196904188942,2230.3745
685.8240170447751,2169.2084999999997
686.2282917667004,2136.441
686.6325145827359,1942.0204999999999
687.0366854909473,1970.4189999999999
687.4408044893996,1850.2714999999998
687.8448715761587,1845.9025
688.2488867492895,1747.6
688.6528500068578,1834.98
689.0567613469287,1778.183
689.4606207675685,1795.6589999999999
689.8644282668416,1922.36
690.2681838428139,1924.5445
690.6718874935511,1887.408
691.0755392171183,1915.8065
691.4791390115813,1961.6809999999998
691.882686875005,1913.6219999999998
692.2861828054554,1922.36
692.6896268009974,1931.098
693.093018859697,1922.36
693.4963589796193,2014.109
693.8996471588297,1950.7585
694.302883395394,1976.9724999999999
694.7060676873774,1968.2344999999998
695.1092000328454,2031.5849999999998
695.5122804298634,2068.7215
695.915308876497,2134.2565
696.3182853708113,2062.1679999999997
696.7212099108722,2031.5849999999998
697.1240824947447,1981.3415
697.5269031204945,2029.4005
697.9296717861873,1996.6329999999998
698.3323884898879,2020.6625
698.7350532296624,1961.6809999999998
699.1376660035759,2108.0425
699.5402268096939,1942.0204999999999
699.9427356460817,1924.5445
700.345192510805,1909.253
700.7475974019292,1933.2824999999998
701.1499503175196,1983.5259999999998
701.552251255642,1885.2234999999998
701.9545002143612,1924.5445
702.3566971917435,1939.8359999999998
702.7588421858536,2014.109
703.1609351947575,1907.0684999999999
703.56297621652,2016.2935
703.9649652492071,1946.3895
704.3669022908841,1950.7585
704.7687873396164,1994.4485
705.1706203934697,2003.1864999999998
705.572401450509,2040.3229999999999
705.9741305088,2011.9244999999999
706.3758075664081,2022.847
706.7774326213988,1992.264
707.1790056718376,2027.216
707.5805267157896,2003.1864999999998
707.9819957513208,1992.264
708.3834127764962,2057.799
708.7847777893816,2049.0609999999997
709.186090788042,1950.7585
709.5873517705433,1955.1274999999998
709.9885607349506,2003.1864999999998
710.3897176793297,1983.5259999999998
710.7908226017455,2003.1864999999998
711.191875500264,2022.847
711.5928763729504,2025.0314999999998
711.9938252178702,2029.4005
712.394722033089,1955.1274999999998
712.7955668166717,2090.5665
713.1963595666846,2014.109
713.5971002811923,1942.0204999999999
713.9977889582609,2022.847
714.3984255959552,1931.098
714.7990101923413,1996.6329999999998
715.1995427454843,2001.002
715.6000232534498,2016.2935
716.0004517143032,1832.7955
716.4008281261097,1717.0169999999998
716.8011524869352,1804.397
717.2014247948446,1745.4154999999998
717.601645047904,1599.0539999999999
718.0018132441783,1592.5004999999999
718.401929381733,1522.5964999999999
718.801993458634,1443.9544999999998
719.2020054729461,1522.5964999999999
719.6019654227355,1627.4524999999999
720.001873306067,1596.8695
720.4017291210064,1555.364
720.8015328656188,1583.7624999999998
721.2012845379702,1673.327
721.6009841361254,1815.3194999999998
722.0006316581503,1758.5224999999998
722.4002271021103,1717.0169999999998
722.7997704660706,1710.4634999999998
723.1992617480972,1732.3084999999999
723.5987009462549,1557.5484999999999
723.9980880586095,1601.2385
724.3974230832262,1727.9395
724.7967060181709,1666.7735
725.1959368615085,1688.6184999999998
725.5951156113047,1647.1129999999998
725.994242265625,1544.4415
726.3933168225348,1688.6184999999998
726.7923392800997,1686.434
727.1913096363846,1684.2495
727.590227889456,1682.0649999999998
727.989094037378,1642.744
728.387908078217,1710.4634999999998
728.7866700100384,1636.1905
729.1853798309071,1688.6184999999998
729.5840375388892,1644.9285
729.9826431320496,1738.8619999999999
730.381196608454,1679.8805
730.7796979661679,1817.504
731.1781472032567,1800.0279999999998
731.5765443177856,1800.0279999999998
731.9748893078204,1797.8435
732.3731821714266,1832.7955
732.7714229066692,2005.3709999999999
733.1696115116141,1924.5445
733.5677479843264,1939.8359999999998
733.9658323228718,1968.2344999999998
734.3638645253155,1863.3784999999998
734.7618445897234,1994.4485
735.1597725141603,2066.537
735.5576482966922,2046.8764999999999
735.9554719353844,1981.3415
736.353243428302,1966.05
736.7509627735112,2040.3229999999999
737.1486299690765,2016.2935
737.5462450130642,2066.537
737.9438079035392,1981.3415
738.3413186385673,2022.847
738.7387772162135,2068.7215
739.1361836345436,2064.3525
739.533537891623,2092.7509999999997
739.9308399855171,2035.954
740.3280899142916,2022.847
740.7252876760114,2053.43
741.1224332687425,2051.2455
741.5195266905499,2105.8579999999997
741.9165679394995,2020.6625
742.3135570136562,1985.7105
742.7104939110858,2084.013
743.107378629854,2145.179
743.5042111680257,2053.43
743.9009915236667,2066.537
744.2977196948423,2182.3154999999997
744.694395679618,1983.5259999999998
745.0910194760592,2046.8764999999999
745.4875910822315,2153.917
745.8841104962,2049.0609999999997
746.2805777160304,2081.8285
746.6769927397884,2101.489
747.0733555655388,2129.8875
747.4696661913479,2088.382
747.8659246152803,2075.275
748.262130835402,2140.81
748.6582848497782,2094.9355
749.0543866564744,2009.7399999999998
749.4504362535561,2014.109
749.8464336390886,2079.644
750.2423788111375,2007.5555
750.6382717677682,2062.1679999999997
751.0341125070463,2057.799
751.4299010270369,2016.2935
751.8256373258059,2081.8285
752.2213214014182,2169.2084999999997
752.6169532519398,2094.9355
753.0125328754357,2138.6255
753.4080602699714,2035.954
753.8035354336129,2140.81
754.1989583644248,2097.12
754.5943290604733,1998.8174999999999
754.9896475198234,2156.1014999999998
755.3849137405407,2088.382
755.7801277206906,2035.954
756.1752894583385,2070.906
756.5703989515501,2079.644
756.9654561983905,2035.954
757.3604611969255,2110.227
757.7554139452201,2020.6625
758.1503144413404,1854.6405
758.545162683351,1756.338
758.9399586693182,1526.9655
759.3347023973067,1428.663
759.7293938653823,1146.8625
760.1240330716107,1048.56
760.518620014057,889.0915
760.9131546907869,801.7115
761.3076370998654,823.5564999999999
761.7020672393585,790.789
762.0964451073311,705.5935
762.4907707018492,694.6709999999999
762.8850440209778,771.1284999999999
763.2792650627824,768.944
763.6734338253289,747.0989999999999
764.0675503066823,843.217
764.4616145049081,943.704
764.8556264180719,917.49
765.2495860442391,1044.191
765.643493381475,1066.036
766.0373484278452,1225.5045
766.4311511814151,1197.106
766.8249016402501,1295.4085
767.218599802416,1384.973
767.6122456659774,1242.9805
768.0058392290009,1450.5079999999998
768.3993804895509,1502.936
768.7928694456936,1553.1795
769.1863060954938,1481.091
769.5796904370177,1529.1499999999999
769.9730224683301,1542.2569999999998
770.3663021874966,1583.7624999999998
770.7595295925828,1570.6554999999998
771.1527046816541,1625.268
771.545827452776,1522.5964999999999
771.9388979040139,1483.2755
772.3319160334331,1564.1019999999999
772.7248818390992,1651.482
773.1177953190777,1526.9655
773.5106564714338,1522.5964999999999
773.9034652942331,1513.8584999999998
774.2962217855412,1533.519
774.6889259434233,1599.0539999999999
775.0815777659451,1472.3529999999998
775.4741772511718,1411.187
775.8667243971692,1513.8584999999998
776.2592192020021,1498.567
776.6516616637367,1470.1685
777.0440517804377,1461.4305
777.436389550171,1542.2569999999998
777.8286749710024,1402.4489999999998
778.2209080409965,1487.6444999999999
778.6130887582195,1457.0615
779.0052171207363,1437.4009999999998
779.3972931266128,1526.9655
779.789316773914,1345.652
780.1812880607058,1315.069
780.5732069850532,1297.5929999999998
780.9650735450218,1457.0615
781.3568877386774,1317.2535
781.748649564085,1402.4489999999998
782.1403590193103,1369.6815
782.5320161024185,1382.7884999999999
782.9236208114755,1422.1095
783.3151731445462,1334.7295
783.7066730996962,1376.235
784.0981206749914,1304.1464999999998
784.4895158684966,1358.759
784.8808586782777,1262.6409999999998
785.2721491024,1299.7775
785.6633871389289,1341.283
786.0545727859298,1312.8845
786.4457060414685,1280.117
786.8367869036098,1277.9325
787.2278153704198,1194.9215
787.6187914399636,1162.154
788.0097151103067,1170.8919999999998
788.4005863795147,1240.7959999999998
788.7914052456528,1280.117
789.1821717067867,1183.999
789.5728857609815,1170.8919999999998
789.9635474063031,1153.416
790.3541566408164,1162.154
790.7447134625874,1199.2904999999998
791.1352178696812,1212.3975
791.5256698601634,1120.6485
791.9160694320996,1151.2314999999999
792.3064165835547,1087.8809999999999
792.6967113125947,1109.7259999999999
793.0869536172847,1100.9879999999998
793.4771434956906,1159.9695
793.8672809458772,1107.5415
794.2573659659104,1096.619
794.6473985538555,1061.667
795.0373787077781,1127.202
795.4273064257435,1061.667
795.817181705817,1153.416
796.2070045460646,1092.25
796.5967749445509,1125.0175
796.9864928993424,1072.5895
797.3761584085034,1009.2389999999999
797.7657714701,1013.608
798.1553320821979,1129.3864999999998
798.5448402428619,1022.346
798.934295950158,1055.1135
799.3236992021511,1135.94
799.7130499969073,1074.774
800.1023483324915,1046.3754999999999
800.4915942069695,1057.298
800.8807876184064,1035.453
801.2699285648678,1042.0065
801.6590170444194,963.3644999999999
802.0480530551263,1020.1614999999999
802.4370365950543,954.6265
802.8259676622685,954.6265
803.2148462548345,985.2094999999999
803.6036723708175,1068.2205
803.9924460082835,996.132
804.3811671652974,1046.3754999999999
804.7698358399249,1033.2685
805.1584520302316,989.5785
805.5470157342826,983.025
805.9355269501436,926.228
806.3239856758798,952.442
806.7123919095571,983.025
807.1007456492404,956.8109999999999
807.4890468929957,1033.2685
807.8772956388879,985.2094999999999
808.2654918849826,980.8404999999999
808.6536356293456,915.3054999999999
809.041726870042,950.2574999999999
809.4297656051374,902.1985
809.817751832697,1055.1135
810.2056855507867,952.442
810.5935667574714,880.3534999999999
810.981395450817,921.8589999999999
811.3691716288889,934.9659999999999
811.7568952897522,893.4604999999999
812.1445664314728,910.9364999999999
812.5321850521157,893.4604999999999
812.9197511497468,858.5084999999999
813.3072647224312,867.2465
813.6947257682345,878.169
814.082134285222,758.0215
814.4694902714592,764.5749999999999
814.8567937250119,766.7595
815.244044643945,803.896
815.6312430263246,736.1764999999999
816.0183888702153,801.7115
816.4054821736833,753.6524999999999
816.7925229347934,758.0215
817.1795111516118,696.8555
817.5664468222033,692.4865
817.9533299446335,646.612
818.3401605169682,683.7484999999999
818.7269385372724,659.7189999999999
819.1136640036119,685.933
819.5003369140518,766.7595
819.8869572666579,699.04
820.2735250594953,753.6524999999999
820.6600402906299,749.2835
821.0465029581266,795.1579999999999
821.4329130600511,766.7595
821.8192705944691,701.2244999999999
822.2055755594456,723.0695
822.5918279530464,738.361
822.9780277733366,751.468
823.3641750183822,696.8555
823.7502696862481,723.0695
824.1363117750001,723.0695
824.5223012827033,753.6524999999999
824.9082382074233,758.0215
825.2941225472258,747.0989999999999
825.6799543001758,762.3905
826.0657334643394,786.42
826.4514600377812,688.1175
826.8371340185676,733.992
827.222755404763,797.3425
827.6083241944336,679.3795
827.9938403856446,699.04
828.3793039764614,668.457
828.7647149649497,705.5935
829.1500733491747,664.088
829.535379127202,760.2059999999999
829.9206322970966,736.1764999999999
830.3058328569248,716.516
830.6909808047513,657.5345
831.076076138642,701.2244999999999
831.4611188566619,707.778
831.8461089568767,688.1175
832.2310464373521,655.3499999999999
832.615931296153,755.837
833.0007635313455,672.826
833.3855431409944,705.5935
833.7702701231657,690.3019999999999
834.1549444759244,705.5935
834.5395661973363,677.1949999999999
834.9241352854665,694.6709999999999
835.3086517383806,694.6709999999999
835.6931155541442,716.516
836.0775267308226,747.0989999999999
836.4618852664813,729.6229999999999
836.8461911591857,723.0695
837.2304444070013,683.7484999999999
837.6146450079934,753.6524999999999
837.9987929602277,703.409
838.3828882617696,755.837
838.7669309106842,733.992
839.1509209050374,696.8555
839.5348582428943,744.9145
839.9187429223207,692.4865
840.3025749413817,718.7004999999999
840.6863542981431,653.1655
841.0700809906699,727.4385
841.4537550170279,707.778
841.8373763752825,755.837
842.2209450634989,827.9254999999999
842.604461079743,716.516
842.9879244220798,727.4385
843.371335088575,714.3315
843.7546930772938,672.826
844.1379983863022,694.6709999999999
844.521251013665,716.516
844.9044509574479,666.2724999999999
845.2875982157166,683.7484999999999
845.670692786536,677.1949999999999
846.0537346679722,709.9625
846.4367238580901,681.564
846.8196603549555,683.7484999999999
847.2025441566335,712.1469999999999
847.5853752611902,644.4275
847.96815366669,688.1175
848.3508793711992,661.9035
848.7335523727832,650.981
849.1161726695069,690.3019999999999
849.4987402594364,683.7484999999999
849.8812551406367,611.66
850.2637173111734,677.1949999999999
850.646126769112,583.2615
851.0284835125178,616.029
851.4107875394564,622.5825
851.793038847993,609.4755
852.1752374361935,607.2909999999999
852.5573833021227,581.077
852.9394764438468,576.708
853.3215168594307,591.9995
853.7035045469403,574.5235
854.0854395044403,578.8924999999999
854.4673217299969,565.7855
854.8491512216751,565.7855
855.2309279775407,543.9404999999999
855.6126519956589,692.4865
855.994323274095,581.077
856.375941810915,602.922
856.7575076041837,596.3684999999999
857.139020651967,602.922
857.5204809523301,629.136
857.9018885033387,565.7855
858.2832433030578,616.029
858.6645453495532,581.077
859.0457946408907,602.922
859.4269911751348,626.9515
859.8081349503518,596.3684999999999
860.1892259646067,567.97
860.5702642159653,552.6785
860.9512497024924,565.7855
861.3321824222544,681.564
861.7130623733157,611.66
862.0938895537424,552.6785
862.4746639616001,675.0105
862.8553855949535,530.8335
863.236054451869,581.077
863.6166705304112,537.387
863.9972338286461,618.2135
864.3777443446388,611.66
864.7582020764552,548.3095
865.13860702216,591.9995
865.5189591798193,570.1545
865.8992585474983,563.601
866.2795051232624,557.0475
866.6596989051775,508.9885
867.0398398913085,543.9404999999999
867.4199280797211,526.4644999999999
867.7999634684803,524.28
868.1799460556522,535.2025
868.5598758393021,587.6305
868.939752817495,550.4939999999999
869.319576988297,508.9885
869.699348349773,530.8335
870.0790668999888,460.92949999999996
870.4587326370096,493.697
870.8383455589011,471.852
871.2179056637284,476.221
871.5974129495572,530.8335
871.9768674144531,436.9
872.3562690564811,522.0955
872.7356178737073,441.269
873.1149138641963,480.59
873.4941570260142,504.61949999999996
873.8733473572262,543.9404999999999
874.2524848558979,537.387
874.6315695200943,489.328
875.0106013478813,517.7265
875.3895803373246,476.221
875.7685064864888,450.00699999999995
876.1473797934402,552.6785
876.5262002562437,500.2505
876.904967872965,489.328
877.2836826416693,526.4644999999999
877.6623445604225,489.328
878.0409536272895,467.48299999999995
878.419509840336,526.4644999999999
878.7980131976277,508.9885
879.1764636972296,535.2025
879.5548613372074,554.8629999999999
879.9332061156265,528.649
880.3114980305525,456.5605
880.6897370800505,543.9404999999999
881.0679232621862,458.745
881.446056575025,528.649
881.8241370166322,482.7745
882.2021645850737,519.911
882.5801392784144,474.0365
882.95806109472,443.45349999999996
883.335930032056,491.5125
883.7137460884878,460.92949999999996
884.0915092620808,463.114
884.4692195509006,500.2505
884.8468769530123,467.48299999999995
885.2244814664815,452.19149999999996
885.602033089374,415.05499999999995
885.9795318197547,454.376
886.3569776556895,508.9885
886.7343705952435,493.697
887.1117106364826,445.638
887.4889977774717,432.53099999999995
887.8662320162766,467.48299999999995
888.2434133509626,460.92949999999996
888.620541779595,482.7745
888.9976173002398,441.269
889.3746399109618,465.2985
889.751609609827,450.00699999999995
890.1285263949005,493.697
890.5053902642479,445.638
890.8822012159343,465.2985
891.2589592480258,480.59
891.6356643585872,445.638
892.0123165456841,450.00699999999995
892.3889158073825,458.745
892.7654621417471,439.0845
893.141955546844,515.5419999999999
893.518396020738,401.948
893.8947835614949,452.19149999999996
894.2711181671801,460.92949999999996
894.6473998358591,484.95899999999995
895.0236285655975,439.0845
895.3998043544603,478.40549999999996
895.7759272005134,487.14349999999996
896.1519971018218,469.66749999999996
896.5280140564514,469.66749999999996
896.9039780624673,487.14349999999996
897.2798891179353,484.95899999999995
897.6557472209204,364.81149999999997
898.0315523694884,408.50149999999996
898.4073045617047,386.6565
898.7830037956345,364.81149999999997
899.1586500693436,410.686
899.5342433808971,493.697
899.9097837283609,369.1805
900.2852711098,423.793
900.6607055232802,377.9185
901.0360869668664,380.10299999999995
901.4114154386245,369.1805
901.7866909366201,419.424
902.1619134589182,377.9185
902.5370830035847,353.889
902.9121995686845,332.044
903.2872631522837,371.365
903.662273752447,410.686
904.0372313672407,417.23949999999996
904.4121359947294,375.734
904.786987632979,366.996
905.1617862800551,401.948
905.5365319340227,412.8705
905.9112245929479,388.841
906.2858642548953,386.6565
906.660450917931,323.306
907.03498458012,410.686
907.4094652395283,412.8705
907.7838928942208,340.782
908.1582675422632,329.85949999999997
908.5325891817209,360.4425
908.9068578106594,393.21
909.2810734271443,391.02549999999997
909.6552360292405,360.4425
910.0293456150142,297.092
910.4034021825302,314.568
910.7774057298543,415.05499999999995
911.1513562550518,347.33549999999997
911.5252537561881,358.258
911.899098231329,382.28749999999997
912.2728896785394,358.258
912.6466280958854,329.85949999999997
913.0203134814318,366.996
913.3939458332445,325.4905
913.7675251493887,336.413
914.14105142793,222.819
914.5145246669338,338.59749999999997
914.8879448644652,353.889
915.2613120185905,356.07349999999997
915.6346261273742,318.937
916.0078871888825,323.306
916.3810952011802,301.461
916.7542501623334,325.4905
917.1273520704068,334.2285
917.5004009234667,369.1805
917.8733967195778,290.5385
918.2463394568059,342.9665
918.6192291332165,321.12149999999997
918.9920657468749,419.424
919.3648492958467,279.616
919.7375797781972,353.889
920.1102571919919,288.354
920.4828815352961,338.59749999999997
920.8554528061755,347.33549999999997
921.2279710026955,334.2285
921.6004361229213,329.85949999999997
921.9728481649188,308.0145
922.3452071267529,270.878
922.7175130064896,283.985
923.0897658021939,318.937
923.4619655119316,270.878
923.8341121337677,334.2285
924.2062056657679,364.81149999999997
924.578246105998,229.3725
924.9502334525229,310.19899999999996
925.3221677034084,318.937
925.6940488567196,299.2765
926.0658769105224,305.83
926.4376518628817,371.365
926.8093737118636,356.07349999999997
927.181042455533,255.5865
927.5526580919554,386.6565
927.9242206191967,334.2285
928.2957300353218,283.985
928.6671863383966,222.819
929.0385895264861,277.43149999999997
929.4099395976563,415.05499999999995
929.781236549972,294.90749999999997
930.1524803814993,235.926
930.523671090303,281.8005
930.894808674449,218.45
931.2658931320028,321.12149999999997
931.6369244610294,229.3725
932.0079026595947,262.14
932.3788277257639,152.915
932.7496996576026,205.343
933.1205184531759,279.616
933.4912841105498,259.9555
933.8619966277894,235.926
934.2326560029601,253.402
934.6032622341277,273.0625
934.973815319357,249.033
935.3443152567141,235.926
935.714762044264,299.2765
936.0851556800727,183.498
936.455496162205,225.00349999999997
936.8257834887268,229.3725
937.1960176577032,185.6825
937.5661986672,222.819
937.9363265152824,257.77099999999996
938.3064012000159,238.1105
938.6764227194661,233.74149999999997
939.0463910716982,235.926
939.4163062547779,192.236
939.7861682667702,220.6345
940.1559771057414,286.16949999999997
940.5257327697559,211.8965
940.8954352568799,205.343
941.2650845651787,277.43149999999997
941.6346806927173,231.557
942.004223637562,209.712
942.3737133977772,314.568
942.7431499714295,305.83
943.1125333565833,240.295
943.4818635513046,310.19899999999996
943.8511405536588,255.5865
944.2203643617111,288.354
944.5895349735274,240.295
944.9586523871727,249.033
945.327716600713,216.26549999999997
945.6967276122128,240.295
946.0656854197387,255.5865
946.434590021355,262.14
946.803441415128,259.9555
947.172239599123,279.616
947.540984571405,200.974
947.9096763300402,203.1585
948.2783148730933,246.8485
948.6469001986303,257.77099999999996
949.0154323047161,152.915
949.3839111894167,185.6825
949.7523368507972,301.461
950.120709286923,222.819
950.48902849586,266.509
950.8572944756731,233.74149999999997
951.2255072244282,264.3245
951.5936667401903,229.3725
951.9617730210255,255.5865
952.3298260649983,235.926
952.6978258701752,181.31349999999998
953.0657724346207,238.1105
953.4336657564007,251.21749999999997
953.801505833581,277.43149999999997
954.1692926642263,259.9555
954.5370262464027,218.45
954.9047065781753,286.16949999999997
955.2723336576096,242.47949999999997
955.6399074827709,214.081
956.0074280517251,222.819
956.3748953625371,301.461
956.7423094132726,235.926
957.1096702019972,220.6345
957.4769777267761,238.1105
957.8442319856752,249.033
958.2114329767592,266.509
958.5785806980941,209.712
958.9456751477451,209.712
959.3127163237779,259.9555
959.6797042242576,297.092
960.0466388472498,255.5865
960.4135201908202,268.6935
960.7803482530339,203.1585
961.1471230319565,275.24699999999996
961.5138445256534,240.295
961.8805127321903,314.568
962.2471276496321,235.926
962.6136892760449,209.712
962.9801976094935,244.664
963.3466526480438,277.43149999999997
963.7130543897612,183.498
964.0794028327107,244.664
964.4456979749586,225.00349999999997
964.8119398145695,255.5865
965.1781283496094,227.188
965.5442635781434,220.6345
965.9103454982373,227.188
966.2763741079561,262.14
966.6423494053656,200.974
967.0082713885312,190.05149999999998
967.3741400555181,209.712
967.7399554043923,290.5385
968.1057174332185,229.3725
968.4714261400628,229.3725
968.8370815229902,207.52749999999997
969.2026835800666,211.8965
969.5682323093569,301.461
969.9337277089267,246.8485
970.2991697768418,270.878
970.6645585111673,290.5385
971.029893909969,242.47949999999997
971.3951759713118,244.664
971.7604046932616,279.616
972.1255800738838,249.033
972.4907021112435,218.45
972.8557708034068,327.67499999999995
973.2207861484384,203.1585
973.5857481444043,273.0625
973.9506567893696,190.05149999999998
974.3155120814,279.616
974.6803140185608,233.74149999999997
975.0450625989175,264.3245
975.4097578205354,266.509
975.7743996814802,301.461
976.1389881798173,227.188
976.5035233136119,238.1105
976.86800508093,255.5865
977.2324334798362,264.3245
977.5968085083967,251.21749999999997
977.9611301646765,259.9555
978.3253984467415,253.402
978.6896133526565,266.509
979.0537748804875,249.033
979.4178830282999,242.47949999999997
979.7819377941586,216.26549999999997
980.1459391761299,192.236
980.5098871722785,262.14
980.8737817806705,281.8005
981.2376229993705,253.402
981.6014108264449,257.77099999999996
981.9651452599584,273.0625
982.3288262979767,257.77099999999996
982.6924539385656,240.295
983.0560281797899,266.509
983.4195490197156,290.5385
983.7830164564078,253.402
984.1464304879323,257.77099999999996
984.509791112354,292.72299999999996
984.8730983277391,209.712
985.2363521321522,229.3725
985.5995525236592,242.47949999999997
985.9626995003257,246.8485
986.3257930602168,235.926
986.6888332013984,268.6935
987.0518199219354,283.985
987.4147532198938,303.64549999999997
987.7776330933383,218.45
988.1404595403352,244.664
988.5032325589493,266.509
988.8659521472463,203.1585
989.2286183032919,231.557
989.5912310251509,270.878
989.9537903108895,251.21749999999997
990.3162961585726,225.00349999999997
990.678748566266,262.14
991.0411475320348,301.461
991.4034930539448,190.05149999999998
991.765785130061,235.926
992.1280237584492,139.808
992.490208937175,192.236
992.8523406643034,238.1105
993.2144189379003,303.64549999999997
993.5764437560306,231.557
993.9384151167604,249.033
994.3003330181544,262.14
994.6621974582789,314.568
995.0240084351987,216.26549999999997
995.3857659469793,275.24699999999996
995.7474699916867,174.76
996.1091205673855,194.4205
996.470717672142,231.557
996.8322613040209,279.616
997.1937514610883,268.6935
997.5551881414091,275.24699999999996
997.9165713430489,251.21749999999997
998.2779010640735,218.45
998.639177302548,240.295
999.000400056538,214.081
999.3615693241087,231.557
999.7226851033258,262.14
1000.0837473922546,246.8485
1000.4447561889609,251.21749999999997
1000.8057114915096,222.819
1001.1666132979663,231.557
1001.5274616063969,262.14
1001.8882564148663,225.00349999999997
1002.2489977214402,168.2065
1002.609685524184,255.5865
1002.9703198211632,148.546
1003.3309006104431,277.43149999999997
1003.6914278900895,233.74149999999997
1004.0519016581673,216.26549999999997
1004.4123219127422,229.3725
1004.77268865188,200.974
1005.1330018736456,244.664
1005.4932615761049,220.6345
1005.853467757323,209.712
1006.2136204153655,174.76
1006.5737195482977,190.05149999999998
1006.9337651541855,264.3245
1007.2937572310937,270.878
1007.653695777088,240.295
1008.0135807902343,259.9555
1008.3734122685975,238.1105
1008.7331902102432,253.402
1009.0929146132366,303.64549999999997
1009.4525854756439,240.295
1009.8122027955297,231.557
1010.1717665709601,229.3725
1010.5312768,292.72299999999996
1010.8907334807151,308.0145
1011.250136611171,255.5865
1011.6094861894329,249.033
1011.9687822135664,377.9185
1012.3280246816369,266.509
1012.6872135917098,259.9555
1013.0463489418504,218.45
1013.4054307301247,264.3245
1013.7644589545974,238.1105
1014.1234336133346,233.74149999999997
1014.4823547044014,303.64549999999997
1014.8412222258632,192.236
1015.2000361757858,238.1105
1015.5587965522343,259.9555
1015.9175033532744,216.26549999999997
1016.2761565769711,216.26549999999997
1016.6347562213905,244.664
1016.9933022845975,225.00349999999997
1017.3517947646576,233.74149999999997
1017.7102336596367,216.26549999999997
1018.0686189676,209.712
1018.4269506866128,231.557
1018.7852288147405,227.188
1019.143453350049,240.295
1019.5016242906031,240.295
1019.859741634469,220.6345
1020.2178053797113,259.9555
1020.5758155243958,179.129
1020.9337720665885,176.9445
1021.2916750043541,192.236
1021.6495243357585,192.236
1022.0073200588668,192.236
1022.3650621717449,196.605
1022.7227506724577,194.4205
1023.0803855590709,214.081
1023.4379668296501,216.26549999999997
1023.7954944822606,229.3725
1024.1529685149678,231.557
1024.5103889258373,240.295
1024.8677557129345,238.1105
1025.2250688743247,238.1105
1025.5823284080734,242.47949999999997
1025.9395343122462,286.16949999999997
1026.296686584908,209.712
1026.6537852241254,227.188
1027.0108302279627,227.188
1027.367821594486,227.188
